#  E (eV)   dos(E)     Int dos(E) EFermi =   10.070 eV
 -20.000 -0.3256E-79 -0.3256E-81
 -19.990 -0.3255E-79 -0.6511E-81
 -19.980 -0.3253E-79 -0.9764E-81
 -19.970 -0.3252E-79 -0.1302E-80
 -19.960 -0.3251E-79 -0.1627E-80
 -19.950 -0.3250E-79 -0.1952E-80
 -19.940 -0.3248E-79 -0.2277E-80
 -19.930 -0.3247E-79 -0.2601E-80
 -19.920 -0.3246E-79 -0.2926E-80
 -19.910 -0.3244E-79 -0.3250E-80
 -19.900 -0.3243E-79 -0.3575E-80
 -19.890 -0.3242E-79 -0.3899E-80
 -19.880 -0.3241E-79 -0.4223E-80
 -19.870 -0.3239E-79 -0.4547E-80
 -19.860 -0.3238E-79 -0.4870E-80
 -19.850 -0.3237E-79 -0.5194E-80
 -19.840 -0.3235E-79 -0.5518E-80
 -19.830 -0.3234E-79 -0.5841E-80
 -19.820 -0.3233E-79 -0.6164E-80
 -19.810 -0.3232E-79 -0.6488E-80
 -19.800 -0.3230E-79 -0.6811E-80
 -19.790 -0.3229E-79 -0.7133E-80
 -19.780 -0.3228E-79 -0.7456E-80
 -19.770 -0.3226E-79 -0.7779E-80
 -19.760 -0.3225E-79 -0.8101E-80
 -19.750 -0.3224E-79 -0.8424E-80
 -19.740 -0.3223E-79 -0.8746E-80
 -19.730 -0.3221E-79 -0.9068E-80
 -19.720 -0.3220E-79 -0.9390E-80
 -19.710 -0.3219E-79 -0.9712E-80
 -19.700 -0.3217E-79 -0.1003E-79
 -19.690 -0.3216E-79 -0.1036E-79
 -19.680 -0.3215E-79 -0.1068E-79
 -19.670 -0.3214E-79 -0.1100E-79
 -19.660 -0.3212E-79 -0.1132E-79
 -19.650 -0.3211E-79 -0.1164E-79
 -19.640 -0.3210E-79 -0.1196E-79
 -19.630 -0.3209E-79 -0.1228E-79
 -19.620 -0.3207E-79 -0.1260E-79
 -19.610 -0.3206E-79 -0.1292E-79
 -19.600 -0.3205E-79 -0.1324E-79
 -19.590 -0.3203E-79 -0.1356E-79
 -19.580 -0.3202E-79 -0.1388E-79
 -19.570 -0.3201E-79 -0.1420E-79
 -19.560 -0.3200E-79 -0.1452E-79
 -19.550 -0.3198E-79 -0.1484E-79
 -19.540 -0.3197E-79 -0.1516E-79
 -19.530 -0.3196E-79 -0.1548E-79
 -19.520 -0.3195E-79 -0.1580E-79
 -19.510 -0.3193E-79 -0.1612E-79
 -19.500 -0.3192E-79 -0.1644E-79
 -19.490 -0.3191E-79 -0.1676E-79
 -19.480 -0.3190E-79 -0.1708E-79
 -19.470 -0.3188E-79 -0.1740E-79
 -19.460 -0.3187E-79 -0.1772E-79
 -19.450 -0.3186E-79 -0.1804E-79
 -19.440 -0.3184E-79 -0.1835E-79
 -19.430 -0.3183E-79 -0.1867E-79
 -19.420 -0.3182E-79 -0.1899E-79
 -19.410 -0.3181E-79 -0.1931E-79
 -19.400 -0.3179E-79 -0.1963E-79
 -19.390 -0.3178E-79 -0.1994E-79
 -19.380 -0.3177E-79 -0.2026E-79
 -19.370 -0.3176E-79 -0.2058E-79
 -19.360 -0.3174E-79 -0.2090E-79
 -19.350 -0.3173E-79 -0.2121E-79
 -19.340 -0.3172E-79 -0.2153E-79
 -19.330 -0.3171E-79 -0.2185E-79
 -19.320 -0.3169E-79 -0.2217E-79
 -19.310 -0.3168E-79 -0.2248E-79
 -19.300 -0.3167E-79 -0.2280E-79
 -19.290 -0.3166E-79 -0.2312E-79
 -19.280 -0.3164E-79 -0.2343E-79
 -19.270 -0.3163E-79 -0.2375E-79
 -19.260 -0.3162E-79 -0.2407E-79
 -19.250 -0.3161E-79 -0.2438E-79
 -19.240 -0.3159E-79 -0.2470E-79
 -19.230 -0.3158E-79 -0.2501E-79
 -19.220 -0.3157E-79 -0.2533E-79
 -19.210 -0.3156E-79 -0.2564E-79
 -19.200 -0.3154E-79 -0.2596E-79
 -19.190 -0.3153E-79 -0.2627E-79
 -19.180 -0.3152E-79 -0.2659E-79
 -19.170 -0.3151E-79 -0.2691E-79
 -19.160 -0.3149E-79 -0.2722E-79
 -19.150 -0.3148E-79 -0.2753E-79
 -19.140 -0.3147E-79 -0.2785E-79
 -19.130 -0.3146E-79 -0.2816E-79
 -19.120 -0.3144E-79 -0.2848E-79
 -19.110 -0.3143E-79 -0.2879E-79
 -19.100 -0.3142E-79 -0.2911E-79
 -19.090 -0.3141E-79 -0.2942E-79
 -19.080 -0.3139E-79 -0.2973E-79
 -19.070 -0.3138E-79 -0.3005E-79
 -19.060 -0.3137E-79 -0.3036E-79
 -19.050 -0.3136E-79 -0.3068E-79
 -19.040 -0.3134E-79 -0.3099E-79
 -19.030 -0.3133E-79 -0.3130E-79
 -19.020 -0.3132E-79 -0.3162E-79
 -19.010 -0.3131E-79 -0.3193E-79
 -19.000 -0.3129E-79 -0.3224E-79
 -18.990 -0.3128E-79 -0.3255E-79
 -18.980 -0.3127E-79 -0.3287E-79
 -18.970 -0.3126E-79 -0.3318E-79
 -18.960 -0.3124E-79 -0.3349E-79
 -18.950 -0.3123E-79 -0.3380E-79
 -18.940 -0.3122E-79 -0.3412E-79
 -18.930 -0.3121E-79 -0.3443E-79
 -18.920 -0.3119E-79 -0.3474E-79
 -18.910 -0.3118E-79 -0.3505E-79
 -18.900 -0.3117E-79 -0.3536E-79
 -18.890 -0.3116E-79 -0.3568E-79
 -18.880 -0.3114E-79 -0.3599E-79
 -18.870 -0.3113E-79 -0.3630E-79
 -18.860 -0.3112E-79 -0.3661E-79
 -18.850 -0.3111E-79 -0.3692E-79
 -18.840 -0.3110E-79 -0.3723E-79
 -18.830 -0.3108E-79 -0.3754E-79
 -18.820 -0.3107E-79 -0.3785E-79
 -18.810 -0.3106E-79 -0.3816E-79
 -18.800 -0.3105E-79 -0.3847E-79
 -18.790 -0.3103E-79 -0.3878E-79
 -18.780 -0.3102E-79 -0.3910E-79
 -18.770 -0.3101E-79 -0.3941E-79
 -18.760 -0.3100E-79 -0.3972E-79
 -18.750 -0.3098E-79 -0.4002E-79
 -18.740 -0.3097E-79 -0.4033E-79
 -18.730 -0.3096E-79 -0.4064E-79
 -18.720 -0.3095E-79 -0.4095E-79
 -18.710 -0.3094E-79 -0.4126E-79
 -18.700 -0.3092E-79 -0.4157E-79
 -18.690 -0.3091E-79 -0.4188E-79
 -18.680 -0.3090E-79 -0.4219E-79
 -18.670 -0.3089E-79 -0.4250E-79
 -18.660 -0.3087E-79 -0.4281E-79
 -18.650 -0.3086E-79 -0.4312E-79
 -18.640 -0.3085E-79 -0.4343E-79
 -18.630 -0.3084E-79 -0.4373E-79
 -18.620 -0.3082E-79 -0.4404E-79
 -18.610 -0.3081E-79 -0.4435E-79
 -18.600 -0.3080E-79 -0.4466E-79
 -18.590 -0.3079E-79 -0.4497E-79
 -18.580 -0.3078E-79 -0.4527E-79
 -18.570 -0.3076E-79 -0.4558E-79
 -18.560 -0.3075E-79 -0.4589E-79
 -18.550 -0.3074E-79 -0.4620E-79
 -18.540 -0.3073E-79 -0.4650E-79
 -18.530 -0.3071E-79 -0.4681E-79
 -18.520 -0.3070E-79 -0.4712E-79
 -18.510 -0.3069E-79 -0.4742E-79
 -18.500 -0.3068E-79 -0.4773E-79
 -18.490 -0.3067E-79 -0.4804E-79
 -18.480 -0.3065E-79 -0.4834E-79
 -18.470 -0.3064E-79 -0.4865E-79
 -18.460 -0.3063E-79 -0.4896E-79
 -18.450 -0.3062E-79 -0.4926E-79
 -18.440 -0.3061E-79 -0.4957E-79
 -18.430 -0.3059E-79 -0.4988E-79
 -18.420 -0.3058E-79 -0.5018E-79
 -18.410 -0.3057E-79 -0.5049E-79
 -18.400 -0.3056E-79 -0.5079E-79
 -18.390 -0.3054E-79 -0.5110E-79
 -18.380 -0.3053E-79 -0.5140E-79
 -18.370 -0.3052E-79 -0.5171E-79
 -18.360 -0.3051E-79 -0.5201E-79
 -18.350 -0.3050E-79 -0.5232E-79
 -18.340 -0.3048E-79 -0.5262E-79
 -18.330 -0.3047E-79 -0.5293E-79
 -18.320 -0.3046E-79 -0.5323E-79
 -18.310 -0.3045E-79 -0.5354E-79
 -18.300 -0.3044E-79 -0.5384E-79
 -18.290 -0.3042E-79 -0.5415E-79
 -18.280 -0.3041E-79 -0.5445E-79
 -18.270 -0.3040E-79 -0.5475E-79
 -18.260 -0.3039E-79 -0.5506E-79
 -18.250 -0.3038E-79 -0.5536E-79
 -18.240 -0.3036E-79 -0.5566E-79
 -18.230 -0.3035E-79 -0.5597E-79
 -18.220 -0.3034E-79 -0.5627E-79
 -18.210 -0.3033E-79 -0.5658E-79
 -18.200 -0.3032E-79 -0.5688E-79
 -18.190 -0.3030E-79 -0.5718E-79
 -18.180 -0.3029E-79 -0.5748E-79
 -18.170 -0.3028E-79 -0.5779E-79
 -18.160 -0.3027E-79 -0.5809E-79
 -18.150 -0.3026E-79 -0.5839E-79
 -18.140 -0.3024E-79 -0.5869E-79
 -18.130 -0.3023E-79 -0.5900E-79
 -18.120 -0.3022E-79 -0.5930E-79
 -18.110 -0.3021E-79 -0.5960E-79
 -18.100 -0.3020E-79 -0.5990E-79
 -18.090 -0.3018E-79 -0.6020E-79
 -18.080 -0.3017E-79 -0.6051E-79
 -18.070 -0.3016E-79 -0.6081E-79
 -18.060 -0.3015E-79 -0.6111E-79
 -18.050 -0.3014E-79 -0.6141E-79
 -18.040 -0.3012E-79 -0.6171E-79
 -18.030 -0.3011E-79 -0.6201E-79
 -18.020 -0.3010E-79 -0.6231E-79
 -18.010 -0.3009E-79 -0.6262E-79
 -18.000 -0.3008E-79 -0.6292E-79
 -17.990 -0.3006E-79 -0.6322E-79
 -17.980 -0.3005E-79 -0.6352E-79
 -17.970 -0.3004E-79 -0.6382E-79
 -17.960 -0.3003E-79 -0.6412E-79
 -17.950 -0.3002E-79 -0.6442E-79
 -17.940 -0.3000E-79 -0.6472E-79
 -17.930 -0.2999E-79 -0.6502E-79
 -17.920 -0.2998E-79 -0.6532E-79
 -17.910 -0.2997E-79 -0.6562E-79
 -17.900 -0.2996E-79 -0.6592E-79
 -17.890 -0.2994E-79 -0.6622E-79
 -17.880 -0.2993E-79 -0.6652E-79
 -17.870 -0.2992E-79 -0.6682E-79
 -17.860 -0.2991E-79 -0.6711E-79
 -17.850 -0.2990E-79 -0.6741E-79
 -17.840 -0.2989E-79 -0.6771E-79
 -17.830 -0.2987E-79 -0.6801E-79
 -17.820 -0.2986E-79 -0.6831E-79
 -17.810 -0.2985E-79 -0.6861E-79
 -17.800 -0.2984E-79 -0.6891E-79
 -17.790 -0.2983E-79 -0.6920E-79
 -17.780 -0.2981E-79 -0.6950E-79
 -17.770 -0.2980E-79 -0.6980E-79
 -17.760 -0.2979E-79 -0.7010E-79
 -17.750 -0.2978E-79 -0.7040E-79
 -17.740 -0.2977E-79 -0.7069E-79
 -17.730 -0.2976E-79 -0.7099E-79
 -17.720 -0.2974E-79 -0.7129E-79
 -17.710 -0.2973E-79 -0.7159E-79
 -17.700 -0.2972E-79 -0.7188E-79
 -17.690 -0.2971E-79 -0.7218E-79
 -17.680 -0.2970E-79 -0.7248E-79
 -17.670 -0.2968E-79 -0.7277E-79
 -17.660 -0.2967E-79 -0.7307E-79
 -17.650 -0.2966E-79 -0.7337E-79
 -17.640 -0.2965E-79 -0.7366E-79
 -17.630 -0.2964E-79 -0.7396E-79
 -17.620 -0.2963E-79 -0.7426E-79
 -17.610 -0.2961E-79 -0.7455E-79
 -17.600 -0.2960E-79 -0.7485E-79
 -17.590 -0.2959E-79 -0.7515E-79
 -17.580 -0.2958E-79 -0.7544E-79
 -17.570 -0.2957E-79 -0.7574E-79
 -17.560 -0.2956E-79 -0.7603E-79
 -17.550 -0.2954E-79 -0.7633E-79
 -17.540 -0.2953E-79 -0.7662E-79
 -17.530 -0.2952E-79 -0.7692E-79
 -17.520 -0.2951E-79 -0.7721E-79
 -17.510 -0.2950E-79 -0.7751E-79
 -17.500 -0.2949E-79 -0.7780E-79
 -17.490 -0.2947E-79 -0.7810E-79
 -17.480 -0.2946E-79 -0.7839E-79
 -17.470 -0.2945E-79 -0.7869E-79
 -17.460 -0.2944E-79 -0.7898E-79
 -17.450 -0.2943E-79 -0.7928E-79
 -17.440 -0.2942E-79 -0.7957E-79
 -17.430 -0.2940E-79 -0.7986E-79
 -17.420 -0.2939E-79 -0.8016E-79
 -17.410 -0.2938E-79 -0.8045E-79
 -17.400 -0.2937E-79 -0.8075E-79
 -17.390 -0.2936E-79 -0.8104E-79
 -17.380 -0.2935E-79 -0.8133E-79
 -17.370 -0.2933E-79 -0.8163E-79
 -17.360 -0.2932E-79 -0.8192E-79
 -17.350 -0.2931E-79 -0.8221E-79
 -17.340 -0.2930E-79 -0.8250E-79
 -17.330 -0.2929E-79 -0.8280E-79
 -17.320 -0.2928E-79 -0.8309E-79
 -17.310 -0.2926E-79 -0.8338E-79
 -17.300 -0.2925E-79 -0.8368E-79
 -17.290 -0.2924E-79 -0.8397E-79
 -17.280 -0.2923E-79 -0.8426E-79
 -17.270 -0.2922E-79 -0.8455E-79
 -17.260 -0.2921E-79 -0.8484E-79
 -17.250 -0.2920E-79 -0.8514E-79
 -17.240 -0.2918E-79 -0.8543E-79
 -17.230 -0.2917E-79 -0.8572E-79
 -17.220 -0.2916E-79 -0.8601E-79
 -17.210 -0.2915E-79 -0.8630E-79
 -17.200 -0.2914E-79 -0.8659E-79
 -17.190 -0.2913E-79 -0.8689E-79
 -17.180 -0.2911E-79 -0.8718E-79
 -17.170 -0.2910E-79 -0.8747E-79
 -17.160 -0.2909E-79 -0.8776E-79
 -17.150 -0.2908E-79 -0.8805E-79
 -17.140 -0.2907E-79 -0.8834E-79
 -17.130 -0.2906E-79 -0.8863E-79
 -17.120 -0.2905E-79 -0.8892E-79
 -17.110 -0.2903E-79 -0.8921E-79
 -17.100 -0.2902E-79 -0.8950E-79
 -17.090 -0.2901E-79 -0.8979E-79
 -17.080 -0.2900E-79 -0.9008E-79
 -17.070 -0.2899E-79 -0.9037E-79
 -17.060 -0.2898E-79 -0.9066E-79
 -17.050 -0.2897E-79 -0.9095E-79
 -17.040 -0.2895E-79 -0.9124E-79
 -17.030 -0.2894E-79 -0.9153E-79
 -17.020 -0.2893E-79 -0.9182E-79
 -17.010 -0.2892E-79 -0.9211E-79
 -17.000 -0.2891E-79 -0.9240E-79
 -16.990 -0.2890E-79 -0.9269E-79
 -16.980 -0.2889E-79 -0.9298E-79
 -16.970 -0.2887E-79 -0.9326E-79
 -16.960 -0.2886E-79 -0.9355E-79
 -16.950 -0.2885E-79 -0.9384E-79
 -16.940 -0.2884E-79 -0.9413E-79
 -16.930 -0.2883E-79 -0.9442E-79
 -16.920 -0.2882E-79 -0.9471E-79
 -16.910 -0.2881E-79 -0.9499E-79
 -16.900 -0.2879E-79 -0.9528E-79
 -16.890 -0.2878E-79 -0.9557E-79
 -16.880 -0.2877E-79 -0.9586E-79
 -16.870 -0.2876E-79 -0.9615E-79
 -16.860 -0.2875E-79 -0.9643E-79
 -16.850 -0.2874E-79 -0.9672E-79
 -16.840 -0.2873E-79 -0.9701E-79
 -16.830 -0.2871E-79 -0.9729E-79
 -16.820 -0.2870E-79 -0.9758E-79
 -16.810 -0.2869E-79 -0.9787E-79
 -16.800 -0.2868E-79 -0.9816E-79
 -16.790 -0.2867E-79 -0.9844E-79
 -16.780 -0.2866E-79 -0.9873E-79
 -16.770 -0.2865E-79 -0.9902E-79
 -16.760 -0.2863E-79 -0.9930E-79
 -16.750 -0.2862E-79 -0.9959E-79
 -16.740 -0.2861E-79 -0.9987E-79
 -16.730 -0.2860E-79 -0.1002E-78
 -16.720 -0.2859E-79 -0.1004E-78
 -16.710 -0.2858E-79 -0.1007E-78
 -16.700 -0.2857E-79 -0.1010E-78
 -16.690 -0.2856E-79 -0.1013E-78
 -16.680 -0.2854E-79 -0.1016E-78
 -16.670 -0.2853E-79 -0.1019E-78
 -16.660 -0.2852E-79 -0.1022E-78
 -16.650 -0.2851E-79 -0.1024E-78
 -16.640 -0.2850E-79 -0.1027E-78
 -16.630 -0.2849E-79 -0.1030E-78
 -16.620 -0.2848E-79 -0.1033E-78
 -16.610 -0.2847E-79 -0.1036E-78
 -16.600 -0.2846E-79 -0.1039E-78
 -16.590 -0.2846E-79 -0.1042E-78
 -16.580 -0.2859E-79 -0.1044E-78
 -16.570 -0.2963E-79 -0.1047E-78
 -16.560 -0.3749E-79 -0.1051E-78
 -16.550 -0.9578E-79 -0.1061E-78
 -16.540 -0.5230E-78 -0.1113E-78
 -16.530 -0.3621E-77 -0.1475E-78
 -16.520 -0.2584E-76 -0.4059E-78
 -16.510 -0.1834E-75 -0.2240E-77
 -16.500 -0.1289E-74 -0.1513E-76
 -16.490 -0.8966E-74 -0.1048E-75
 -16.480 -0.6167E-73 -0.7215E-75
 -16.470 -0.4197E-72 -0.4918E-74
 -16.460 -0.2825E-71 -0.3317E-73
 -16.450 -0.1881E-70 -0.2213E-72
 -16.440 -0.1239E-69 -0.1460E-71
 -16.430 -0.8072E-69 -0.9533E-71
 -16.420 -0.5203E-68 -0.6156E-70
 -16.410 -0.3317E-67 -0.3933E-69
 -16.400 -0.2092E-66 -0.2485E-68
 -16.390 -0.1305E-65 -0.1554E-67
 -16.380 -0.8055E-65 -0.9608E-67
 -16.370 -0.4917E-64 -0.5878E-66
 -16.360 -0.2969E-63 -0.3557E-65
 -16.350 -0.1774E-62 -0.2129E-64
 -16.340 -0.1048E-61 -0.1261E-63
 -16.330 -0.6126E-61 -0.7387E-63
 -16.320 -0.3542E-60 -0.4281E-62
 -16.310 -0.2026E-59 -0.2454E-61
 -16.300 -0.1146E-58 -0.1392E-60
 -16.290 -0.6415E-58 -0.7807E-60
 -16.280 -0.3552E-57 -0.4332E-59
 -16.270 -0.1945E-56 -0.2378E-58
 -16.260 -0.1054E-55 -0.1291E-57
 -16.250 -0.5646E-55 -0.6937E-57
 -16.240 -0.2993E-54 -0.3687E-56
 -16.230 -0.1569E-53 -0.1938E-55
 -16.220 -0.8139E-53 -0.1008E-54
 -16.210 -0.4176E-52 -0.5184E-54
 -16.200 -0.2119E-51 -0.2638E-53
 -16.190 -0.1064E-50 -0.1328E-52
 -16.180 -0.5284E-50 -0.6611E-52
 -16.170 -0.2595E-49 -0.3257E-51
 -16.160 -0.1261E-48 -0.1587E-50
 -16.150 -0.6062E-48 -0.7649E-50
 -16.140 -0.2882E-47 -0.3647E-49
 -16.130 -0.1356E-46 -0.1720E-48
 -16.120 -0.6306E-46 -0.8027E-48
 -16.110 -0.2902E-45 -0.3705E-47
 -16.100 -0.1321E-44 -0.1692E-46
 -16.090 -0.5949E-44 -0.7640E-46
 -16.080 -0.2650E-43 -0.3414E-45
 -16.070 -0.1167E-42 -0.1509E-44
 -16.060 -0.5088E-42 -0.6597E-44
 -16.050 -0.2193E-41 -0.2853E-43
 -16.040 -0.9353E-41 -0.1221E-42
 -16.030 -0.3945E-40 -0.5166E-42
 -16.020 -0.1646E-39 -0.2163E-41
 -16.010 -0.6794E-39 -0.8957E-41
 -16.000 -0.2774E-38 -0.3669E-40
 -15.990 -0.1120E-37 -0.1487E-39
 -15.980 -0.4474E-37 -0.5961E-39
 -15.970 -0.1768E-36 -0.2364E-38
 -15.960 -0.6909E-36 -0.9273E-38
 -15.950 -0.2671E-35 -0.3599E-37
 -15.940 -0.1021E-34 -0.1381E-36
 -15.930 -0.3864E-34 -0.5245E-36
 -15.920 -0.1446E-33 -0.1970E-35
 -15.910 -0.5351E-33 -0.7321E-35
 -15.900 -0.1959E-32 -0.2691E-34
 -15.890 -0.7093E-32 -0.9784E-34
 -15.880 -0.2540E-31 -0.3519E-33
 -15.870 -0.9001E-31 -0.1252E-32
 -15.860 -0.3154E-30 -0.4406E-32
 -15.850 -0.1093E-29 -0.1534E-31
 -15.840 -0.3749E-29 -0.5283E-31
 -15.830 -0.1271E-28 -0.1800E-30
 -15.820 -0.4265E-28 -0.6065E-30
 -15.810 -0.1415E-27 -0.2022E-29
 -15.800 -0.4645E-27 -0.6667E-29
 -15.790 -0.1508E-26 -0.2175E-28
 -15.780 -0.4842E-26 -0.7017E-28
 -15.770 -0.1538E-25 -0.2240E-27
 -15.760 -0.4832E-25 -0.7071E-27
 -15.750 -0.1501E-24 -0.2208E-26
 -15.740 -0.4614E-24 -0.6823E-26
 -15.730 -0.1403E-23 -0.2085E-25
 -15.720 -0.4218E-23 -0.6303E-25
 -15.710 -0.1255E-22 -0.1885E-24
 -15.700 -0.3691E-22 -0.5576E-24
 -15.690 -0.1074E-21 -0.1631E-23
 -15.680 -0.3091E-21 -0.4722E-23
 -15.670 -0.8798E-21 -0.1352E-22
 -15.660 -0.2477E-20 -0.3829E-22
 -15.650 -0.6898E-20 -0.1073E-21
 -15.640 -0.1900E-19 -0.2973E-21
 -15.630 -0.5176E-19 -0.8149E-21
 -15.620 -0.1395E-18 -0.2210E-20
 -15.610 -0.3717E-18 -0.5927E-20
 -15.600 -0.9798E-18 -0.1572E-19
 -15.590 -0.2554E-17 -0.4127E-19
 -15.580 -0.6586E-17 -0.1071E-18
 -15.570 -0.1680E-16 -0.2751E-18
 -15.560 -0.4237E-16 -0.6988E-18
 -15.550 -0.1057E-15 -0.1756E-17
 -15.540 -0.2608E-15 -0.4363E-17
 -15.530 -0.6364E-15 -0.1073E-16
 -15.520 -0.1536E-14 -0.2608E-16
 -15.510 -0.3666E-14 -0.6274E-16
 -15.500 -0.8654E-14 -0.1493E-15
 -15.490 -0.2020E-13 -0.3513E-15
 -15.480 -0.4665E-13 -0.8178E-15
 -15.470 -0.1065E-12 -0.1883E-14
 -15.460 -0.2406E-12 -0.4289E-14
 -15.450 -0.5374E-12 -0.9663E-14
 -15.440 -0.1187E-11 -0.2153E-13
 -15.430 -0.2593E-11 -0.4746E-13
 -15.420 -0.5601E-11 -0.1035E-12
 -15.410 -0.1197E-10 -0.2231E-12
 -15.400 -0.2528E-10 -0.4759E-12
 -15.390 -0.5282E-10 -0.1004E-11
 -15.380 -0.1091E-09 -0.2095E-11
 -15.370 -0.2230E-09 -0.4325E-11
 -15.360 -0.4505E-09 -0.8830E-11
 -15.350 -0.9000E-09 -0.1783E-10
 -15.340 -0.1778E-08 -0.3561E-10
 -15.330 -0.3473E-08 -0.7034E-10
 -15.320 -0.6710E-08 -0.1374E-09
 -15.310 -0.1282E-07 -0.2656E-09
 -15.300 -0.2420E-07 -0.5076E-09
 -15.290 -0.4520E-07 -0.9596E-09
 -15.280 -0.8345E-07 -0.1794E-08
 -15.270 -0.1523E-06 -0.3318E-08
 -15.260 -0.2750E-06 -0.6067E-08
 -15.250 -0.4907E-06 -0.1097E-07
 -15.240 -0.8657E-06 -0.1963E-07
 -15.230 -0.1510E-05 -0.3473E-07
 -15.220 -0.2603E-05 -0.6076E-07
 -15.210 -0.4438E-05 -0.1051E-06
 -15.200 -0.7477E-05 -0.1799E-06
 -15.190 -0.1245E-04 -0.3045E-06
 -15.180 -0.2050E-04 -0.5095E-06
 -15.170 -0.3336E-04 -0.8431E-06
 -15.160 -0.5366E-04 -0.1380E-05
 -15.150 -0.8529E-04 -0.2233E-05
 -15.140 -0.1340E-03 -0.3572E-05
 -15.130 -0.2080E-03 -0.5652E-05
 -15.120 -0.3190E-03 -0.8842E-05
 -15.110 -0.4834E-03 -0.1368E-04
 -15.100 -0.7238E-03 -0.2091E-04
 -15.090 -0.1071E-02 -0.3162E-04
 -15.080 -0.1564E-02 -0.4726E-04
 -15.070 -0.2257E-02 -0.6983E-04
 -15.060 -0.3216E-02 -0.1020E-03
 -15.050 -0.4526E-02 -0.1473E-03
 -15.040 -0.6286E-02 -0.2101E-03
 -15.030 -0.8619E-02 -0.2963E-03
 -15.020 -0.1166E-01 -0.4129E-03
 -15.010 -0.1557E-01 -0.5686E-03
 -15.000 -0.2050E-01 -0.7736E-03
 -14.990 -0.2661E-01 -0.1040E-02
 -14.980 -0.3404E-01 -0.1380E-02
 -14.970 -0.4290E-01 -0.1809E-02
 -14.960 -0.5322E-01 -0.2341E-02
 -14.950 -0.6497E-01 -0.2991E-02
 -14.940 -0.7794E-01 -0.3770E-02
 -14.930 -0.9181E-01 -0.4688E-02
 -14.920 -0.1060E+00 -0.5748E-02
 -14.910 -0.1197E+00 -0.6946E-02
 -14.900 -0.1320E+00 -0.8265E-02
 -14.890 -0.1413E+00 -0.9679E-02
 -14.880 -0.1462E+00 -0.1114E-01
 -14.870 -0.1447E+00 -0.1259E-01
 -14.860 -0.1347E+00 -0.1393E-01
 -14.850 -0.1140E+00 -0.1507E-01
 -14.840 -0.8041E-01 -0.1588E-01
 -14.830 -0.3160E-01 -0.1619E-01
 -14.820  0.3433E-01 -0.1585E-01
 -14.810  0.1190E+00 -0.1466E-01
 -14.800  0.2235E+00 -0.1243E-01
 -14.790  0.3483E+00 -0.8943E-02
 -14.780  0.4931E+00 -0.4011E-02
 -14.770  0.6569E+00  0.2558E-02
 -14.760  0.8378E+00  0.1094E-01
 -14.750  0.1033E+01  0.2127E-01
 -14.740  0.1240E+01  0.3367E-01
 -14.730  0.1455E+01  0.4822E-01
 -14.720  0.1674E+01  0.6496E-01
 -14.710  0.1893E+01  0.8388E-01
 -14.700  0.2109E+01  0.1050E+00
 -14.690  0.2320E+01  0.1282E+00
 -14.680  0.2524E+01  0.1534E+00
 -14.670  0.2719E+01  0.1806E+00
 -14.660  0.2907E+01  0.2097E+00
 -14.650  0.3090E+01  0.2406E+00
 -14.640  0.3269E+01  0.2733E+00
 -14.630  0.3449E+01  0.3078E+00
 -14.620  0.3634E+01  0.3441E+00
 -14.610  0.3828E+01  0.3824E+00
 -14.600  0.4036E+01  0.4227E+00
 -14.590  0.4262E+01  0.4653E+00
 -14.580  0.4507E+01  0.5104E+00
 -14.570  0.4774E+01  0.5582E+00
 -14.560  0.5061E+01  0.6088E+00
 -14.550  0.5366E+01  0.6624E+00
 -14.540  0.5684E+01  0.7193E+00
 -14.530  0.6007E+01  0.7793E+00
 -14.520  0.6326E+01  0.8426E+00
 -14.510  0.6631E+01  0.9089E+00
 -14.500  0.6911E+01  0.9780E+00
 -14.490  0.7152E+01  0.1050E+01
 -14.480  0.7342E+01  0.1123E+01
 -14.470  0.7471E+01  0.1198E+01
 -14.460  0.7530E+01  0.1273E+01
 -14.450  0.7510E+01  0.1348E+01
 -14.440  0.7407E+01  0.1422E+01
 -14.430  0.7220E+01  0.1494E+01
 -14.420  0.6951E+01  0.1564E+01
 -14.410  0.6605E+01  0.1630E+01
 -14.400  0.6189E+01  0.1692E+01
 -14.390  0.5716E+01  0.1749E+01
 -14.380  0.5196E+01  0.1801E+01
 -14.370  0.4646E+01  0.1847E+01
 -14.360  0.4080E+01  0.1888E+01
 -14.350  0.3512E+01  0.1923E+01
 -14.340  0.2957E+01  0.1953E+01
 -14.330  0.2427E+01  0.1977E+01
 -14.320  0.1933E+01  0.1996E+01
 -14.310  0.1483E+01  0.2011E+01
 -14.300  0.1084E+01  0.2022E+01
 -14.290  0.7375E+00  0.2030E+01
 -14.280  0.4459E+00  0.2034E+01
 -14.270  0.2077E+00  0.2036E+01
 -14.260  0.2018E-01  0.2036E+01
 -14.250 -0.1211E+00  0.2035E+01
 -14.240 -0.2213E+00  0.2033E+01
 -14.230 -0.2863E+00  0.2030E+01
 -14.220 -0.3222E+00  0.2027E+01
 -14.210 -0.3349E+00  0.2023E+01
 -14.200 -0.3299E+00  0.2020E+01
 -14.190 -0.3123E+00  0.2017E+01
 -14.180 -0.2863E+00  0.2014E+01
 -14.170 -0.2555E+00  0.2012E+01
 -14.160 -0.2228E+00  0.2009E+01
 -14.150 -0.1902E+00  0.2007E+01
 -14.140 -0.1593E+00  0.2006E+01
 -14.130 -0.1311E+00  0.2005E+01
 -14.120 -0.1061E+00  0.2003E+01
 -14.110 -0.8449E-01  0.2003E+01
 -14.100 -0.6628E-01  0.2002E+01
 -14.090 -0.5123E-01  0.2001E+01
 -14.080 -0.3904E-01  0.2001E+01
 -14.070 -0.2934E-01  0.2001E+01
 -14.060 -0.2176E-01  0.2001E+01
 -14.050 -0.1592E-01  0.2000E+01
 -14.040 -0.1150E-01  0.2000E+01
 -14.030 -0.8199E-02  0.2000E+01
 -14.020 -0.5772E-02  0.2000E+01
 -14.010 -0.4013E-02  0.2000E+01
 -14.000 -0.2756E-02  0.2000E+01
 -13.990 -0.1870E-02  0.2000E+01
 -13.980 -0.1253E-02  0.2000E+01
 -13.970 -0.8296E-03  0.2000E+01
