#  E (eV)   dos(E)     Int dos(E) EFermi =    9.563 eV
 -20.000 -0.3489E-79 -0.3489E-81
 -19.990 -0.3487E-79 -0.6976E-81
 -19.980 -0.3486E-79 -0.1046E-80
 -19.970 -0.3485E-79 -0.1395E-80
 -19.960 -0.3484E-79 -0.1743E-80
 -19.950 -0.3482E-79 -0.2091E-80
 -19.940 -0.3481E-79 -0.2439E-80
 -19.930 -0.3480E-79 -0.2787E-80
 -19.920 -0.3478E-79 -0.3135E-80
 -19.910 -0.3477E-79 -0.3483E-80
 -19.900 -0.3476E-79 -0.3830E-80
 -19.890 -0.3474E-79 -0.4178E-80
 -19.880 -0.3473E-79 -0.4525E-80
 -19.870 -0.3472E-79 -0.4872E-80
 -19.860 -0.3470E-79 -0.5219E-80
 -19.850 -0.3469E-79 -0.5566E-80
 -19.840 -0.3468E-79 -0.5913E-80
 -19.830 -0.3466E-79 -0.6260E-80
 -19.820 -0.3465E-79 -0.6606E-80
 -19.810 -0.3464E-79 -0.6953E-80
 -19.800 -0.3463E-79 -0.7299E-80
 -19.790 -0.3461E-79 -0.7645E-80
 -19.780 -0.3460E-79 -0.7991E-80
 -19.770 -0.3459E-79 -0.8337E-80
 -19.760 -0.3457E-79 -0.8683E-80
 -19.750 -0.3456E-79 -0.9028E-80
 -19.740 -0.3455E-79 -0.9374E-80
 -19.730 -0.3453E-79 -0.9719E-80
 -19.720 -0.3452E-79 -0.1006E-79
 -19.710 -0.3451E-79 -0.1041E-79
 -19.700 -0.3450E-79 -0.1075E-79
 -19.690 -0.3448E-79 -0.1110E-79
 -19.680 -0.3447E-79 -0.1144E-79
 -19.670 -0.3446E-79 -0.1179E-79
 -19.660 -0.3444E-79 -0.1213E-79
 -19.650 -0.3443E-79 -0.1248E-79
 -19.640 -0.3442E-79 -0.1282E-79
 -19.630 -0.3440E-79 -0.1317E-79
 -19.620 -0.3439E-79 -0.1351E-79
 -19.610 -0.3438E-79 -0.1385E-79
 -19.600 -0.3437E-79 -0.1420E-79
 -19.590 -0.3435E-79 -0.1454E-79
 -19.580 -0.3434E-79 -0.1488E-79
 -19.570 -0.3433E-79 -0.1523E-79
 -19.560 -0.3431E-79 -0.1557E-79
 -19.550 -0.3430E-79 -0.1591E-79
 -19.540 -0.3429E-79 -0.1626E-79
 -19.530 -0.3428E-79 -0.1660E-79
 -19.520 -0.3426E-79 -0.1694E-79
 -19.510 -0.3425E-79 -0.1728E-79
 -19.500 -0.3424E-79 -0.1763E-79
 -19.490 -0.3422E-79 -0.1797E-79
 -19.480 -0.3421E-79 -0.1831E-79
 -19.470 -0.3420E-79 -0.1865E-79
 -19.460 -0.3419E-79 -0.1899E-79
 -19.450 -0.3417E-79 -0.1934E-79
 -19.440 -0.3416E-79 -0.1968E-79
 -19.430 -0.3415E-79 -0.2002E-79
 -19.420 -0.3413E-79 -0.2036E-79
 -19.410 -0.3412E-79 -0.2070E-79
 -19.400 -0.3411E-79 -0.2104E-79
 -19.390 -0.3410E-79 -0.2138E-79
 -19.380 -0.3408E-79 -0.2172E-79
 -19.370 -0.3407E-79 -0.2207E-79
 -19.360 -0.3406E-79 -0.2241E-79
 -19.350 -0.3404E-79 -0.2275E-79
 -19.340 -0.3403E-79 -0.2309E-79
 -19.330 -0.3402E-79 -0.2343E-79
 -19.320 -0.3401E-79 -0.2377E-79
 -19.310 -0.3399E-79 -0.2411E-79
 -19.300 -0.3398E-79 -0.2445E-79
 -19.290 -0.3397E-79 -0.2479E-79
 -19.280 -0.3395E-79 -0.2513E-79
 -19.270 -0.3394E-79 -0.2547E-79
 -19.260 -0.3393E-79 -0.2580E-79
 -19.250 -0.3392E-79 -0.2614E-79
 -19.240 -0.3390E-79 -0.2648E-79
 -19.230 -0.3389E-79 -0.2682E-79
 -19.220 -0.3388E-79 -0.2716E-79
 -19.210 -0.3387E-79 -0.2750E-79
 -19.200 -0.3385E-79 -0.2784E-79
 -19.190 -0.3384E-79 -0.2818E-79
 -19.180 -0.3383E-79 -0.2851E-79
 -19.170 -0.3381E-79 -0.2885E-79
 -19.160 -0.3380E-79 -0.2919E-79
 -19.150 -0.3379E-79 -0.2953E-79
 -19.140 -0.3378E-79 -0.2987E-79
 -19.130 -0.3376E-79 -0.3020E-79
 -19.120 -0.3375E-79 -0.3054E-79
 -19.110 -0.3374E-79 -0.3088E-79
 -19.100 -0.3373E-79 -0.3122E-79
 -19.090 -0.3371E-79 -0.3155E-79
 -19.080 -0.3370E-79 -0.3189E-79
 -19.070 -0.3369E-79 -0.3223E-79
 -19.060 -0.3367E-79 -0.3256E-79
 -19.050 -0.3366E-79 -0.3290E-79
 -19.040 -0.3365E-79 -0.3324E-79
 -19.030 -0.3364E-79 -0.3357E-79
 -19.020 -0.3362E-79 -0.3391E-79
 -19.010 -0.3361E-79 -0.3425E-79
 -19.000 -0.3360E-79 -0.3458E-79
 -18.990 -0.3359E-79 -0.3492E-79
 -18.980 -0.3357E-79 -0.3525E-79
 -18.970 -0.3356E-79 -0.3559E-79
 -18.960 -0.3355E-79 -0.3592E-79
 -18.950 -0.3354E-79 -0.3626E-79
 -18.940 -0.3352E-79 -0.3659E-79
 -18.930 -0.3351E-79 -0.3693E-79
 -18.920 -0.3350E-79 -0.3726E-79
 -18.910 -0.3349E-79 -0.3760E-79
 -18.900 -0.3347E-79 -0.3793E-79
 -18.890 -0.3346E-79 -0.3827E-79
 -18.880 -0.3345E-79 -0.3860E-79
 -18.870 -0.3344E-79 -0.3894E-79
 -18.860 -0.3342E-79 -0.3927E-79
 -18.850 -0.3341E-79 -0.3961E-79
 -18.840 -0.3340E-79 -0.3994E-79
 -18.830 -0.3338E-79 -0.4027E-79
 -18.820 -0.3337E-79 -0.4061E-79
 -18.810 -0.3336E-79 -0.4094E-79
 -18.800 -0.3335E-79 -0.4127E-79
 -18.790 -0.3333E-79 -0.4161E-79
 -18.780 -0.3332E-79 -0.4194E-79
 -18.770 -0.3331E-79 -0.4227E-79
 -18.760 -0.3330E-79 -0.4261E-79
 -18.750 -0.3328E-79 -0.4294E-79
 -18.740 -0.3327E-79 -0.4327E-79
 -18.730 -0.3326E-79 -0.4361E-79
 -18.720 -0.3325E-79 -0.4394E-79
 -18.710 -0.3323E-79 -0.4427E-79
 -18.700 -0.3322E-79 -0.4460E-79
 -18.690 -0.3321E-79 -0.4493E-79
 -18.680 -0.3320E-79 -0.4527E-79
 -18.670 -0.3318E-79 -0.4560E-79
 -18.660 -0.3317E-79 -0.4593E-79
 -18.650 -0.3316E-79 -0.4626E-79
 -18.640 -0.3315E-79 -0.4659E-79
 -18.630 -0.3313E-79 -0.4692E-79
 -18.620 -0.3312E-79 -0.4726E-79
 -18.610 -0.3311E-79 -0.4759E-79
 -18.600 -0.3310E-79 -0.4792E-79
 -18.590 -0.3308E-79 -0.4825E-79
 -18.580 -0.3307E-79 -0.4858E-79
 -18.570 -0.3306E-79 -0.4891E-79
 -18.560 -0.3305E-79 -0.4924E-79
 -18.550 -0.3304E-79 -0.4957E-79
 -18.540 -0.3302E-79 -0.4990E-79
 -18.530 -0.3301E-79 -0.5023E-79
 -18.520 -0.3300E-79 -0.5056E-79
 -18.510 -0.3299E-79 -0.5089E-79
 -18.500 -0.3297E-79 -0.5122E-79
 -18.490 -0.3296E-79 -0.5155E-79
 -18.480 -0.3295E-79 -0.5188E-79
 -18.470 -0.3294E-79 -0.5221E-79
 -18.460 -0.3292E-79 -0.5254E-79
 -18.450 -0.3291E-79 -0.5287E-79
 -18.440 -0.3290E-79 -0.5320E-79
 -18.430 -0.3289E-79 -0.5353E-79
 -18.420 -0.3287E-79 -0.5385E-79
 -18.410 -0.3286E-79 -0.5418E-79
 -18.400 -0.3285E-79 -0.5451E-79
 -18.390 -0.3284E-79 -0.5484E-79
 -18.380 -0.3282E-79 -0.5517E-79
 -18.370 -0.3281E-79 -0.5550E-79
 -18.360 -0.3280E-79 -0.5582E-79
 -18.350 -0.3279E-79 -0.5615E-79
 -18.340 -0.3278E-79 -0.5648E-79
 -18.330 -0.3276E-79 -0.5681E-79
 -18.320 -0.3275E-79 -0.5714E-79
 -18.310 -0.3274E-79 -0.5746E-79
 -18.300 -0.3273E-79 -0.5779E-79
 -18.290 -0.3271E-79 -0.5812E-79
 -18.280 -0.3270E-79 -0.5844E-79
 -18.270 -0.3269E-79 -0.5877E-79
 -18.260 -0.3268E-79 -0.5910E-79
 -18.250 -0.3267E-79 -0.5942E-79
 -18.240 -0.3265E-79 -0.5975E-79
 -18.230 -0.3264E-79 -0.6008E-79
 -18.220 -0.3263E-79 -0.6040E-79
 -18.210 -0.3262E-79 -0.6073E-79
 -18.200 -0.3260E-79 -0.6106E-79
 -18.190 -0.3259E-79 -0.6138E-79
 -18.180 -0.3258E-79 -0.6171E-79
 -18.170 -0.3257E-79 -0.6203E-79
 -18.160 -0.3255E-79 -0.6236E-79
 -18.150 -0.3254E-79 -0.6268E-79
 -18.140 -0.3253E-79 -0.6301E-79
 -18.130 -0.3252E-79 -0.6333E-79
 -18.120 -0.3251E-79 -0.6366E-79
 -18.110 -0.3249E-79 -0.6398E-79
 -18.100 -0.3248E-79 -0.6431E-79
 -18.090 -0.3247E-79 -0.6463E-79
 -18.080 -0.3246E-79 -0.6496E-79
 -18.070 -0.3245E-79 -0.6528E-79
 -18.060 -0.3243E-79 -0.6561E-79
 -18.050 -0.3242E-79 -0.6593E-79
 -18.040 -0.3241E-79 -0.6626E-79
 -18.030 -0.3240E-79 -0.6658E-79
 -18.020 -0.3238E-79 -0.6690E-79
 -18.010 -0.3237E-79 -0.6723E-79
 -18.000 -0.3236E-79 -0.6755E-79
 -17.990 -0.3235E-79 -0.6787E-79
 -17.980 -0.3234E-79 -0.6820E-79
 -17.970 -0.3232E-79 -0.6852E-79
 -17.960 -0.3231E-79 -0.6884E-79
 -17.950 -0.3230E-79 -0.6917E-79
 -17.940 -0.3229E-79 -0.6949E-79
 -17.930 -0.3228E-79 -0.6981E-79
 -17.920 -0.3226E-79 -0.7014E-79
 -17.910 -0.3225E-79 -0.7046E-79
 -17.900 -0.3224E-79 -0.7078E-79
 -17.890 -0.3223E-79 -0.7110E-79
 -17.880 -0.3221E-79 -0.7142E-79
 -17.870 -0.3220E-79 -0.7175E-79
 -17.860 -0.3219E-79 -0.7207E-79
 -17.850 -0.3218E-79 -0.7239E-79
 -17.840 -0.3217E-79 -0.7271E-79
 -17.830 -0.3215E-79 -0.7303E-79
 -17.820 -0.3214E-79 -0.7335E-79
 -17.810 -0.3213E-79 -0.7368E-79
 -17.800 -0.3212E-79 -0.7400E-79
 -17.790 -0.3211E-79 -0.7432E-79
 -17.780 -0.3209E-79 -0.7464E-79
 -17.770 -0.3208E-79 -0.7496E-79
 -17.760 -0.3207E-79 -0.7528E-79
 -17.750 -0.3206E-79 -0.7560E-79
 -17.740 -0.3205E-79 -0.7592E-79
 -17.730 -0.3203E-79 -0.7624E-79
 -17.720 -0.3202E-79 -0.7656E-79
 -17.710 -0.3201E-79 -0.7688E-79
 -17.700 -0.3200E-79 -0.7720E-79
 -17.690 -0.3199E-79 -0.7752E-79
 -17.680 -0.3197E-79 -0.7784E-79
 -17.670 -0.3196E-79 -0.7816E-79
 -17.660 -0.3195E-79 -0.7848E-79
 -17.650 -0.3194E-79 -0.7880E-79
 -17.640 -0.3193E-79 -0.7912E-79
 -17.630 -0.3191E-79 -0.7944E-79
 -17.620 -0.3190E-79 -0.7976E-79
 -17.610 -0.3189E-79 -0.8008E-79
 -17.600 -0.3188E-79 -0.8040E-79
 -17.590 -0.3187E-79 -0.8071E-79
 -17.580 -0.3185E-79 -0.8103E-79
 -17.570 -0.3184E-79 -0.8135E-79
 -17.560 -0.3183E-79 -0.8167E-79
 -17.550 -0.3182E-79 -0.8199E-79
 -17.540 -0.3181E-79 -0.8231E-79
 -17.530 -0.3179E-79 -0.8262E-79
 -17.520 -0.3178E-79 -0.8294E-79
 -17.510 -0.3177E-79 -0.8326E-79
 -17.500 -0.3176E-79 -0.8358E-79
 -17.490 -0.3175E-79 -0.8389E-79
 -17.480 -0.3174E-79 -0.8421E-79
 -17.470 -0.3172E-79 -0.8453E-79
 -17.460 -0.3171E-79 -0.8485E-79
 -17.450 -0.3170E-79 -0.8516E-79
 -17.440 -0.3169E-79 -0.8548E-79
 -17.430 -0.3168E-79 -0.8580E-79
 -17.420 -0.3166E-79 -0.8611E-79
 -17.410 -0.3165E-79 -0.8643E-79
 -17.400 -0.3164E-79 -0.8675E-79
 -17.390 -0.3163E-79 -0.8706E-79
 -17.380 -0.3162E-79 -0.8738E-79
 -17.370 -0.3160E-79 -0.8769E-79
 -17.360 -0.3159E-79 -0.8801E-79
 -17.350 -0.3158E-79 -0.8833E-79
 -17.340 -0.3157E-79 -0.8864E-79
 -17.330 -0.3156E-79 -0.8896E-79
 -17.320 -0.3155E-79 -0.8927E-79
 -17.310 -0.3153E-79 -0.8959E-79
 -17.300 -0.3152E-79 -0.8990E-79
 -17.290 -0.3151E-79 -0.9022E-79
 -17.280 -0.3150E-79 -0.9053E-79
 -17.270 -0.3149E-79 -0.9085E-79
 -17.260 -0.3148E-79 -0.9116E-79
 -17.250 -0.3146E-79 -0.9148E-79
 -17.240 -0.3145E-79 -0.9179E-79
 -17.230 -0.3144E-79 -0.9211E-79
 -17.220 -0.3143E-79 -0.9242E-79
 -17.210 -0.3142E-79 -0.9274E-79
 -17.200 -0.3140E-79 -0.9305E-79
 -17.190 -0.3139E-79 -0.9336E-79
 -17.180 -0.3138E-79 -0.9368E-79
 -17.170 -0.3137E-79 -0.9399E-79
 -17.160 -0.3136E-79 -0.9430E-79
 -17.150 -0.3135E-79 -0.9462E-79
 -17.140 -0.3133E-79 -0.9493E-79
 -17.130 -0.3132E-79 -0.9524E-79
 -17.120 -0.3131E-79 -0.9556E-79
 -17.110 -0.3130E-79 -0.9587E-79
 -17.100 -0.3129E-79 -0.9618E-79
 -17.090 -0.3128E-79 -0.9650E-79
 -17.080 -0.3126E-79 -0.9681E-79
 -17.070 -0.3125E-79 -0.9712E-79
 -17.060 -0.3124E-79 -0.9743E-79
 -17.050 -0.3123E-79 -0.9775E-79
 -17.040 -0.3122E-79 -0.9806E-79
 -17.030 -0.3121E-79 -0.9837E-79
 -17.020 -0.3119E-79 -0.9868E-79
 -17.010 -0.3118E-79 -0.9899E-79
 -17.000 -0.3117E-79 -0.9931E-79
 -16.990 -0.3116E-79 -0.9962E-79
 -16.980 -0.3115E-79 -0.9993E-79
 -16.970 -0.3114E-79 -0.1002E-78
 -16.960 -0.3112E-79 -0.1006E-78
 -16.950 -0.3111E-79 -0.1009E-78
 -16.940 -0.3110E-79 -0.1012E-78
 -16.930 -0.3109E-79 -0.1015E-78
 -16.920 -0.3108E-79 -0.1018E-78
 -16.910 -0.3107E-79 -0.1021E-78
 -16.900 -0.3105E-79 -0.1024E-78
 -16.890 -0.3104E-79 -0.1027E-78
 -16.880 -0.3103E-79 -0.1030E-78
 -16.870 -0.3102E-79 -0.1033E-78
 -16.860 -0.3101E-79 -0.1037E-78
 -16.850 -0.3100E-79 -0.1040E-78
 -16.840 -0.3098E-79 -0.1043E-78
 -16.830 -0.3097E-79 -0.1046E-78
 -16.820 -0.3096E-79 -0.1049E-78
 -16.810 -0.3095E-79 -0.1052E-78
 -16.800 -0.3094E-79 -0.1055E-78
 -16.790 -0.3093E-79 -0.1058E-78
 -16.780 -0.3092E-79 -0.1061E-78
 -16.770 -0.3090E-79 -0.1064E-78
 -16.760 -0.3089E-79 -0.1068E-78
 -16.750 -0.3088E-79 -0.1071E-78
 -16.740 -0.3087E-79 -0.1074E-78
 -16.730 -0.3086E-79 -0.1077E-78
 -16.720 -0.3085E-79 -0.1080E-78
 -16.710 -0.3083E-79 -0.1083E-78
 -16.700 -0.3082E-79 -0.1086E-78
 -16.690 -0.3081E-79 -0.1089E-78
 -16.680 -0.3080E-79 -0.1092E-78
 -16.670 -0.3079E-79 -0.1095E-78
 -16.660 -0.3078E-79 -0.1098E-78
 -16.650 -0.3077E-79 -0.1101E-78
 -16.640 -0.3075E-79 -0.1105E-78
 -16.630 -0.3074E-79 -0.1108E-78
 -16.620 -0.3073E-79 -0.1111E-78
 -16.610 -0.3072E-79 -0.1114E-78
 -16.600 -0.3071E-79 -0.1117E-78
 -16.590 -0.3070E-79 -0.1120E-78
 -16.580 -0.3069E-79 -0.1123E-78
 -16.570 -0.3067E-79 -0.1126E-78
 -16.560 -0.3066E-79 -0.1129E-78
 -16.550 -0.3065E-79 -0.1132E-78
 -16.540 -0.3064E-79 -0.1135E-78
 -16.530 -0.3063E-79 -0.1138E-78
 -16.520 -0.3062E-79 -0.1141E-78
 -16.510 -0.3061E-79 -0.1144E-78
 -16.500 -0.3059E-79 -0.1147E-78
 -16.490 -0.3058E-79 -0.1150E-78
 -16.480 -0.3057E-79 -0.1154E-78
 -16.470 -0.3056E-79 -0.1157E-78
 -16.460 -0.3055E-79 -0.1160E-78
 -16.450 -0.3054E-79 -0.1163E-78
 -16.440 -0.3053E-79 -0.1166E-78
 -16.430 -0.3051E-79 -0.1169E-78
 -16.420 -0.3050E-79 -0.1172E-78
 -16.410 -0.3049E-79 -0.1175E-78
 -16.400 -0.3048E-79 -0.1178E-78
 -16.390 -0.3047E-79 -0.1181E-78
 -16.380 -0.3046E-79 -0.1184E-78
 -16.370 -0.3045E-79 -0.1187E-78
 -16.360 -0.3044E-79 -0.1190E-78
 -16.350 -0.3042E-79 -0.1193E-78
 -16.340 -0.3041E-79 -0.1196E-78
 -16.330 -0.3040E-79 -0.1199E-78
 -16.320 -0.3039E-79 -0.1202E-78
 -16.310 -0.3038E-79 -0.1205E-78
 -16.300 -0.3037E-79 -0.1208E-78
 -16.290 -0.3036E-79 -0.1211E-78
 -16.280 -0.3034E-79 -0.1214E-78
 -16.270 -0.3033E-79 -0.1217E-78
 -16.260 -0.3032E-79 -0.1221E-78
 -16.250 -0.3031E-79 -0.1224E-78
 -16.240 -0.3030E-79 -0.1227E-78
 -16.230 -0.3029E-79 -0.1230E-78
 -16.220 -0.3028E-79 -0.1233E-78
 -16.210 -0.3027E-79 -0.1236E-78
 -16.200 -0.3025E-79 -0.1239E-78
 -16.190 -0.3024E-79 -0.1242E-78
 -16.180 -0.3023E-79 -0.1245E-78
 -16.170 -0.3022E-79 -0.1248E-78
 -16.160 -0.3021E-79 -0.1251E-78
 -16.150 -0.3020E-79 -0.1254E-78
 -16.140 -0.3019E-79 -0.1257E-78
 -16.130 -0.3018E-79 -0.1260E-78
 -16.120 -0.3016E-79 -0.1263E-78
 -16.110 -0.3015E-79 -0.1266E-78
 -16.100 -0.3014E-79 -0.1269E-78
 -16.090 -0.3013E-79 -0.1272E-78
 -16.080 -0.3012E-79 -0.1275E-78
 -16.070 -0.3011E-79 -0.1278E-78
 -16.060 -0.3010E-79 -0.1281E-78
 -16.050 -0.3009E-79 -0.1284E-78
 -16.040 -0.3008E-79 -0.1287E-78
 -16.030 -0.3006E-79 -0.1290E-78
 -16.020 -0.3005E-79 -0.1293E-78
 -16.010 -0.3004E-79 -0.1296E-78
 -16.000 -0.3003E-79 -0.1299E-78
 -15.990 -0.3002E-79 -0.1302E-78
 -15.980 -0.3001E-79 -0.1305E-78
 -15.970 -0.3000E-79 -0.1308E-78
 -15.960 -0.2999E-79 -0.1311E-78
 -15.950 -0.2998E-79 -0.1314E-78
 -15.940 -0.2996E-79 -0.1317E-78
 -15.930 -0.2995E-79 -0.1320E-78
 -15.920 -0.2994E-79 -0.1323E-78
 -15.910 -0.2993E-79 -0.1326E-78
 -15.900 -0.2992E-79 -0.1329E-78
 -15.890 -0.2991E-79 -0.1332E-78
 -15.880 -0.2990E-79 -0.1335E-78
 -15.870 -0.2989E-79 -0.1338E-78
 -15.860 -0.2988E-79 -0.1341E-78
 -15.850 -0.2986E-79 -0.1344E-78
 -15.840 -0.2985E-79 -0.1347E-78
 -15.830 -0.2984E-79 -0.1350E-78
 -15.820 -0.2983E-79 -0.1353E-78
 -15.810 -0.2982E-79 -0.1356E-78
 -15.800 -0.2981E-79 -0.1359E-78
 -15.790 -0.2980E-79 -0.1362E-78
 -15.780 -0.2979E-79 -0.1365E-78
 -15.770 -0.2978E-79 -0.1368E-78
 -15.760 -0.2976E-79 -0.1371E-78
 -15.750 -0.2975E-79 -0.1374E-78
 -15.740 -0.2974E-79 -0.1377E-78
 -15.730 -0.2973E-79 -0.1380E-78
 -15.720 -0.2972E-79 -0.1383E-78
 -15.710 -0.2971E-79 -0.1386E-78
 -15.700 -0.2970E-79 -0.1389E-78
 -15.690 -0.2969E-79 -0.1392E-78
 -15.680 -0.2968E-79 -0.1394E-78
 -15.670 -0.2967E-79 -0.1397E-78
 -15.660 -0.2965E-79 -0.1400E-78
 -15.650 -0.2964E-79 -0.1403E-78
 -15.640 -0.2963E-79 -0.1406E-78
 -15.630 -0.2962E-79 -0.1409E-78
 -15.620 -0.2961E-79 -0.1412E-78
 -15.610 -0.2960E-79 -0.1415E-78
 -15.600 -0.2959E-79 -0.1418E-78
 -15.590 -0.2958E-79 -0.1421E-78
 -15.580 -0.2957E-79 -0.1424E-78
 -15.570 -0.2956E-79 -0.1427E-78
 -15.560 -0.2955E-79 -0.1430E-78
 -15.550 -0.2953E-79 -0.1433E-78
 -15.540 -0.2952E-79 -0.1436E-78
 -15.530 -0.2951E-79 -0.1439E-78
 -15.520 -0.2950E-79 -0.1442E-78
 -15.510 -0.2949E-79 -0.1445E-78
 -15.500 -0.2948E-79 -0.1448E-78
 -15.490 -0.2947E-79 -0.1451E-78
 -15.480 -0.2946E-79 -0.1454E-78
 -15.470 -0.2945E-79 -0.1457E-78
 -15.460 -0.2944E-79 -0.1459E-78
 -15.450 -0.2943E-79 -0.1462E-78
 -15.440 -0.2941E-79 -0.1465E-78
 -15.430 -0.2940E-79 -0.1468E-78
 -15.420 -0.2939E-79 -0.1471E-78
 -15.410 -0.2938E-79 -0.1474E-78
 -15.400 -0.2937E-79 -0.1477E-78
 -15.390 -0.2936E-79 -0.1480E-78
 -15.380 -0.2935E-79 -0.1483E-78
 -15.370 -0.2934E-79 -0.1486E-78
 -15.360 -0.2933E-79 -0.1489E-78
 -15.350 -0.2932E-79 -0.1492E-78
 -15.340 -0.2931E-79 -0.1495E-78
 -15.330 -0.2929E-79 -0.1498E-78
 -15.320 -0.2928E-79 -0.1501E-78
 -15.310 -0.2927E-79 -0.1504E-78
 -15.300 -0.2926E-79 -0.1506E-78
 -15.290 -0.2925E-79 -0.1509E-78
 -15.280 -0.2924E-79 -0.1512E-78
 -15.270 -0.2923E-79 -0.1515E-78
 -15.260 -0.2922E-79 -0.1518E-78
 -15.250 -0.2921E-79 -0.1521E-78
 -15.240 -0.2920E-79 -0.1524E-78
 -15.230 -0.2919E-79 -0.1527E-78
 -15.220 -0.2918E-79 -0.1530E-78
 -15.210 -0.2917E-79 -0.1533E-78
 -15.200 -0.2915E-79 -0.1536E-78
 -15.190 -0.2914E-79 -0.1539E-78
 -15.180 -0.2913E-79 -0.1541E-78
 -15.170 -0.2912E-79 -0.1544E-78
 -15.160 -0.2911E-79 -0.1547E-78
 -15.150 -0.2910E-79 -0.1550E-78
 -15.140 -0.2909E-79 -0.1553E-78
 -15.130 -0.2908E-79 -0.1556E-78
 -15.120 -0.2907E-79 -0.1559E-78
 -15.110 -0.2906E-79 -0.1562E-78
 -15.100 -0.2905E-79 -0.1565E-78
 -15.090 -0.2904E-79 -0.1568E-78
 -15.080 -0.2903E-79 -0.1571E-78
 -15.070 -0.2902E-79 -0.1573E-78
 -15.060 -0.2900E-79 -0.1576E-78
 -15.050 -0.2899E-79 -0.1579E-78
 -15.040 -0.2898E-79 -0.1582E-78
 -15.030 -0.2897E-79 -0.1585E-78
 -15.020 -0.2896E-79 -0.1588E-78
 -15.010 -0.2895E-79 -0.1591E-78
 -15.000 -0.2894E-79 -0.1594E-78
 -14.990 -0.2893E-79 -0.1597E-78
 -14.980 -0.2892E-79 -0.1600E-78
 -14.970 -0.2891E-79 -0.1602E-78
 -14.960 -0.2890E-79 -0.1605E-78
 -14.950 -0.2889E-79 -0.1608E-78
 -14.940 -0.2888E-79 -0.1611E-78
 -14.930 -0.2887E-79 -0.1614E-78
 -14.920 -0.2886E-79 -0.1617E-78
 -14.910 -0.2884E-79 -0.1620E-78
 -14.900 -0.2883E-79 -0.1623E-78
 -14.890 -0.2882E-79 -0.1625E-78
 -14.880 -0.2881E-79 -0.1628E-78
 -14.870 -0.2880E-79 -0.1631E-78
 -14.860 -0.2879E-79 -0.1634E-78
 -14.850 -0.2878E-79 -0.1637E-78
 -14.840 -0.2877E-79 -0.1640E-78
 -14.830 -0.2876E-79 -0.1643E-78
 -14.820 -0.2875E-79 -0.1646E-78
 -14.810 -0.2874E-79 -0.1649E-78
 -14.800 -0.2873E-79 -0.1651E-78
 -14.790 -0.2872E-79 -0.1654E-78
 -14.780 -0.2871E-79 -0.1657E-78
 -14.770 -0.2870E-79 -0.1660E-78
 -14.760 -0.2869E-79 -0.1663E-78
 -14.750 -0.2868E-79 -0.1666E-78
 -14.740 -0.2867E-79 -0.1669E-78
 -14.730 -0.2865E-79 -0.1671E-78
 -14.720 -0.2864E-79 -0.1674E-78
 -14.710 -0.2863E-79 -0.1677E-78
 -14.700 -0.2862E-79 -0.1680E-78
 -14.690 -0.2861E-79 -0.1683E-78
 -14.680 -0.2860E-79 -0.1686E-78
 -14.670 -0.2859E-79 -0.1689E-78
 -14.660 -0.2858E-79 -0.1691E-78
 -14.650 -0.2857E-79 -0.1694E-78
 -14.640 -0.2856E-79 -0.1697E-78
 -14.630 -0.2855E-79 -0.1700E-78
 -14.620 -0.2854E-79 -0.1703E-78
 -14.610 -0.2853E-79 -0.1706E-78
 -14.600 -0.2852E-79 -0.1709E-78
 -14.590 -0.2851E-79 -0.1711E-78
 -14.580 -0.2850E-79 -0.1714E-78
 -14.570 -0.2849E-79 -0.1717E-78
 -14.560 -0.2848E-79 -0.1720E-78
 -14.550 -0.2847E-79 -0.1723E-78
 -14.540 -0.2846E-79 -0.1726E-78
 -14.530 -0.2845E-79 -0.1729E-78
 -14.520 -0.2843E-79 -0.1731E-78
 -14.510 -0.2842E-79 -0.1734E-78
 -14.500 -0.2841E-79 -0.1737E-78
 -14.490 -0.2840E-79 -0.1740E-78
 -14.480 -0.2839E-79 -0.1743E-78
 -14.470 -0.2838E-79 -0.1746E-78
 -14.460 -0.2837E-79 -0.1748E-78
 -14.450 -0.2836E-79 -0.1751E-78
 -14.440 -0.2835E-79 -0.1754E-78
 -14.430 -0.2834E-79 -0.1757E-78
 -14.420 -0.2833E-79 -0.1760E-78
 -14.410 -0.2832E-79 -0.1763E-78
 -14.400 -0.2831E-79 -0.1765E-78
 -14.390 -0.2830E-79 -0.1768E-78
 -14.380 -0.2829E-79 -0.1771E-78
 -14.370 -0.2828E-79 -0.1774E-78
 -14.360 -0.2827E-79 -0.1777E-78
 -14.350 -0.2826E-79 -0.1780E-78
 -14.340 -0.2825E-79 -0.1782E-78
 -14.330 -0.2824E-79 -0.1785E-78
 -14.320 -0.2823E-79 -0.1788E-78
 -14.310 -0.2822E-79 -0.1791E-78
 -14.300 -0.2821E-79 -0.1794E-78
 -14.290 -0.2820E-79 -0.1797E-78
 -14.280 -0.2819E-79 -0.1799E-78
 -14.270 -0.2818E-79 -0.1802E-78
 -14.260 -0.2817E-79 -0.1805E-78
 -14.250 -0.2816E-79 -0.1808E-78
 -14.240 -0.2815E-79 -0.1811E-78
 -14.230 -0.2814E-79 -0.1813E-78
 -14.220 -0.2812E-79 -0.1816E-78
 -14.210 -0.2811E-79 -0.1819E-78
 -14.200 -0.2810E-79 -0.1822E-78
 -14.190 -0.2809E-79 -0.1825E-78
 -14.180 -0.2808E-79 -0.1827E-78
 -14.170 -0.2807E-79 -0.1830E-78
 -14.160 -0.2806E-79 -0.1833E-78
 -14.150 -0.2805E-79 -0.1836E-78
 -14.140 -0.2804E-79 -0.1839E-78
 -14.130 -0.2803E-79 -0.1841E-78
 -14.120 -0.2802E-79 -0.1844E-78
 -14.110 -0.2801E-79 -0.1847E-78
 -14.100 -0.2800E-79 -0.1850E-78
 -14.090 -0.2799E-79 -0.1853E-78
 -14.080 -0.2798E-79 -0.1855E-78
 -14.070 -0.2797E-79 -0.1858E-78
 -14.060 -0.2796E-79 -0.1861E-78
 -14.050 -0.2795E-79 -0.1864E-78
 -14.040 -0.2794E-79 -0.1867E-78
 -14.030 -0.2793E-79 -0.1869E-78
 -14.020 -0.2792E-79 -0.1872E-78
 -14.010 -0.2791E-79 -0.1875E-78
 -14.000 -0.2790E-79 -0.1878E-78
 -13.990 -0.2789E-79 -0.1881E-78
 -13.980 -0.2788E-79 -0.1883E-78
 -13.970 -0.2787E-79 -0.1886E-78
